wavelength,r,g,b
4.02e-07,0.0657164281361574,0.05451895600823953,0.349799194860501
4.041098039215687e-07,0.06254522582783797,0.051969689425796044,0.3656080786080594
4.062196078431373e-07,0.05929259024847011,0.04920076856157819,0.38190718269572177
4.083294117647059e-07,0.05593298640841305,0.04657225480775291,0.398733150326292
4.1043921568627454e-07,0.05244042997871053,0.04444420955648684,0.41520221893207776
4.125490196078432e-07,0.0487885255710805,0.04315913202542252,0.4312513561274193
4.146588235294118e-07,0.04518166431898503,0.042657602795008985,0.44809708651219304
4.167686274509804e-07,0.04250147506105984,0.04240403453279252,0.46446870074668145
4.1887843137254905e-07,0.04120319002110693,0.0415357041817157,0.4788492311121213
4.209882352941177e-07,0.03925901297772779,0.04014925191313546,0.49311179153443
4.230980392156863e-07,0.03599408614609174,0.03901575202289452,0.508149438622325
4.252078431372549e-07,0.03293402702864746,0.03845506202591808,0.523119731707821
4.2731764705882356e-07,0.030673451029131264,0.03883166821492345,0.5374891093181617
4.294274509803922e-07,0.0288056186459736,0.04018879573500428,0.5511845777793724
4.315372549019608e-07,0.027012591986716183,0.0405901755691904,0.5641577283085124
4.336470588235294e-07,0.025236469262269596,0.04083751538964743,0.5763601521226406
4.3575686274509807e-07,0.023868527487550865,0.04235103534411513,0.5877434404388171
4.378666666666667e-07,0.02303362149206091,0.043630653473647855,0.5982591844741011
4.399764705882353e-07,0.022108437393253196,0.04362960225303732,0.6078713548045398
4.420862745098039e-07,0.020500702655695768,0.0443508532761147,0.6166472949996413
4.441960784313726e-07,0.018771379337907162,0.04589140700524056,0.6247045459454552
4.4630588235294123e-07,0.018702946100490666,0.04693547460496166,0.6320543794512512
4.4841568627450983e-07,0.018761644475822778,0.048241721610398094,0.6385204826215601
4.5052549019607844e-07,0.01854417236063411,0.05284613069028026,0.6439360849853002
4.526352941176471e-07,0.017783823772375473,0.05967142631066582,0.6483382733717786
4.5474509803921574e-07,0.01872101134667115,0.06856442217991826,0.6518424476912013
4.5685490196078435e-07,0.017894779373894457,0.0790515493469422,0.6544916630513385
4.58964705882353e-07,0.019182138233285528,0.09212730547473928,0.656049753720253
4.610745098039216e-07,0.018571908110803448,0.11343702265183757,0.6559064878109943
4.631843137254902e-07,0.01833372085033377,0.14319983774252185,0.6534212270718389
4.6529411764705886e-07,0.017848411636913048,0.1801170647415523,0.6479545121864086
4.6740392156862746e-07,0.018319870955115048,0.22289001764368813,0.639397470389983
4.695137254901961e-07,0.01870011717864416,0.27022001044369237,0.6290069490999118
4.716235294117647e-07,0.01873441471404815,0.32080835713632433,0.6181484815691909
4.7373333333333337e-07,0.018715441367623927,0.3733563717163449,0.6070097993557519
4.75843137254902e-07,0.018722147873205874,0.4265653681785141,0.5950543290844733
4.779529411764706e-07,0.018720597695596843,0.4791366605175917,0.5817365215493613
4.800627450980392e-07,0.018720809325171367,0.5297715627283406,0.5667346271765695
4.821725490196079e-07,0.018719821838537248,0.5771363597978955,0.5501792582238306
4.842823529411764e-07,0.018724499056885995,0.6199502394993638,0.5322555604319371
4.863921568627451e-07,0.018710723733838603,0.6582050081618384,0.5131486795416793
4.885019607843137e-07,0.01873635798115753,0.6921578540913197,0.4930437612938495
4.906117647058824e-07,0.018732540776211688,0.7220659655938094,0.4721259514292393
4.92721568627451e-07,0.018544212170924425,0.748186530975309,0.45058039568864033
4.948313725490196e-07,0.019965522945875894,0.7707783797825256,0.4285922398128448
4.969411764705882e-07,0.0223672042408181,0.7901783773482453,0.406346629542643
4.99050980392157e-07,0.024418407452428306,0.8068338611910878,0.38402871061882726
5.011607843137254e-07,0.026799549168316037,0.8212005440611019,0.36182362878219
5.032705882352942e-07,0.02942068347051092,0.833732776380123,0.3399165297735212
5.053803921568628e-07,0.03183925976192698,0.8447915177763304,0.3184925593336135
5.074901960784315e-07,0.03445237013281651,0.8548527625679831,0.2977368632032582
5.096000000000001e-07,0.03822015534310845,0.8649654578814552,0.27783458712324716
5.117098039215687e-07,0.04208184124428872,0.874605660264788,0.2589297071585355
5.138196078431374e-07,0.045787001220127785,0.8823952518885261,0.2409978278258381
5.15929411764706e-07,0.049698495225742836,0.8883991626687451,0.22397152274881457
5.180392156862745e-07,0.05332508023722687,0.8946802446177387,0.2078799968543498
5.201490196078432e-07,0.05579955809411033,0.9022014535299439,0.19307739644984714
5.222588235294118e-07,0.05853100297865908,0.909225416542141,0.17969651372626394
5.243686274509805e-07,0.05965969120766539,0.9147109453082114,0.16761890275850994
5.264784313725491e-07,0.05885492532457881,0.9186534363540969,0.1567182030335526
5.285882352941177e-07,0.05751558811442879,0.9212489467822479,0.146843562274652
5.306980392156864e-07,0.05625680056411984,0.923821839299755,0.1375094941053144
5.328078431372549e-07,0.05508616612156647,0.9259012034203492,0.12832840860427835
5.349176470588235e-07,0.05315527749941901,0.92679817801261,0.11978848087788575
5.370274509803922e-07,0.04979023120690733,0.926689796756034,0.11213431287984672
5.391372549019608e-07,0.04613919952822807,0.9254343062431236,0.10513022755362257
5.412470588235294e-07,0.04372911359596459,0.9243415423041296,0.09851070040869579
5.433568627450981e-07,0.0412899787136675,0.9220984897358001,0.09205324797736324
5.454666666666667e-07,0.03838005559589327,0.9172665187087853,0.08572651860632534
5.475764705882354e-07,0.03726352515197485,0.9107744023054759,0.07955219657222418
5.49686274509804e-07,0.037328955611478455,0.9044730481517425,0.07355196817150964
5.517960784313725e-07,0.03677808623207155,0.8979821507405492,0.06774751970063185
5.539058823529412e-07,0.03617177509942454,0.8925149704184295,0.062160539693680225
5.560156862745098e-07,0.03662192106697544,0.8872495130941934,0.056842244124882334
5.581254901960784e-07,0.040035421405132374,0.880659467663653,0.0519473256044159
5.602352941176471e-07,0.04725958949961925,0.873116207933617,0.04765313111774282
5.623450980392157e-07,0.061767910496756596,0.8635763798418953,0.04413438844103325
5.644549019607844e-07,0.08608726580022359,0.853399009272002,0.041418313556864574
5.665647058823529e-07,0.11028422347569428,0.8439550728267007,0.039308856767221526
5.686745098039216e-07,0.1542153598541978,0.8341985360200942,0.03759137777636229
5.707843137254902e-07,0.21490160670183198,0.8235872756916751,0.036051236288545736
5.728941176470588e-07,0.27978901949188395,0.8116966470724534,0.03447379200803014
5.750039215686274e-07,0.3478127073383851,0.7979946743304254,0.03270565178107354
5.771137254901961e-07,0.4181689862983456,0.78292467003939,0.03091549723955888
5.792235294117647e-07,0.49005417242877636,0.7678708861407861,0.029376817023390463
5.813333333333335e-07,0.5626645817866878,0.7520919532558806,0.02820225747136276
5.834431372549021e-07,0.6351965304290905,0.7334863279683965,0.02713786999709189
5.855529411764706e-07,0.7068463344129915,0.7121508916190605,0.02588818155596113
5.876627450980393e-07,0.776806161027734,0.6884293834536142,0.024397869448213805
5.897725490196079e-07,0.8424526637120311,0.6626655427178039,0.02286764430817411
5.918823529411765e-07,0.8965108114960647,0.6352031086573743,0.02150990398075385
5.939921568627452e-07,0.9328908496034041,0.6063858205180697,0.02045594801860011
5.961019607843138e-07,0.9549939035315143,0.5765574175456349,0.019685744472225087
5.982117647058824e-07,0.968769928277446,0.5460616389858147,0.01916270605335249
6.00321568627451e-07,0.9779086647508635,0.5152422240843549,0.01885024547370609
6.024313725490197e-07,0.9852233160968532,0.48444291208699564,0.01871177544500954
6.045411764705883e-07,0.9910388335297337,0.4540074422394878,0.018710708678986603
6.066509803921569e-07,0.9935273730868729,0.4242795537875713,0.0188137171721961
6.087607843137255e-07,0.9950426092726267,0.3956029859769923,0.019008602647130876
6.108705882352942e-07,0.9952549750697391,0.3683214780534955,0.01929159198761549
6.129803921568628e-07,0.9957870423044946,0.3427787692628256,0.019658933932808927
6.150901960784314e-07,0.9969045362912013,0.31931859885072694,0.020106877221870177
6.172000000000001e-07,0.9955187495372666,0.29828470606294444,0.020637818258127008
6.193098039215686e-07,0.9929109379440253,0.2800208301452235,0.021329471796484287
6.214196078431374e-07,0.9911921798485146,0.26483896331661916,0.02231003886087339
6.235294117647059e-07,0.9901651126989884,0.25285516842958516,0.023708283878988927
6.256392156862745e-07,0.9887150799115327,0.243383476683267,0.02556706735445177
6.277490196078432e-07,0.9875198854065601,0.23403963061101268,0.027733488011481816
6.298588235294118e-07,0.9886523225669569,0.22518364811612804,0.030027509617492124
6.319686274509804e-07,0.9900442840959751,0.21852730465179154,0.03227399798610318
6.340784313725491e-07,0.9913426472013743,0.21250961390666215,0.034419293688621865
6.361882352941177e-07,0.9923639762300006,0.20609505457012461,0.03653626820390682
6.382980392156862e-07,0.992174373688031,0.19978942539219116,0.03870370681420558
6.404078431372549e-07,0.9909768608178984,0.1935691266580985,0.04100039480176605
6.425176470588235e-07,0.9888967039351079,0.18690563764991489,0.043503114753618725
6.446274509803922e-07,0.9850927927559704,0.18131362713668378,0.04625022794829279
6.467372549019608e-07,0.9790226783451218,0.17770915043719313,0.04922741086191273
6.488470588235294e-07,0.9710790908079593,0.1737412600017076,0.05228942872903687
6.509568627450981e-07,0.9622027509155785,0.17202880983754043,0.055234442514530024
6.530666666666666e-07,0.9533255399730282,0.17071884486825195,0.057860377115386434
6.551764705882355e-07,0.9444433822277095,0.1702286403989696,0.05997200833113181
6.572862745098039e-07,0.9356925944244017,0.17173106806244884,0.061718516021611165
6.593960784313725e-07,0.9266284096588475,0.1728985456571224,0.0637135188485095
6.615058823529413e-07,0.9164302628608112,0.17600702423845677,0.06615132557467218
6.636156862745099e-07,0.9061917954991288,0.18154464303891776,0.0688942489239005
6.657254901960785e-07,0.8966337707206273,0.18832336575716885,0.0717382356226524
6.678352941176471e-07,0.8869955940457285,0.1963647371541103,0.07444235255289842
6.699450980392158e-07,0.8768369428596743,0.20654753888321967,0.07686675726665328
6.720549019607843e-07,0.8669371061211567,0.21671674922297054,0.07899529632386137
6.741647058823531e-07,0.854756529626226,0.22662669461080961,0.08081918090784082
6.762745098039216e-07,0.842367835138839,0.2371365505406252,0.08232870909712672
6.783843137254903e-07,0.8315084627510407,0.24886807159196794,0.08351364921882999
6.804941176470589e-07,0.821000752282655,0.2615179748269465,0.08436376309137397
6.826039215686275e-07,0.8100985339371712,0.27410936730145286,0.08486881253318217
6.847137254901962e-07,0.8004683137839941,0.28675642874704055,0.08501855936267803
6.868235294117647e-07,0.7934308050294782,0.29902567599443997,0.08480276539828507
6.889333333333334e-07,0.7883594655993893,0.3096112228422058,0.08421119245842668
6.91043137254902e-07,0.7851536747285272,0.31824841395707815,0.08323360236152642
6.931529411764707e-07,0.7852398432781528,0.3270123143954096,0.0818671988124499
6.952627450980393e-07,0.7883979116155161,0.3360603017647669,0.08023835945315992
6.973725490196079e-07,0.7921980621519489,0.3440968296848061,0.07858288401100802
6.994823529411765e-07,0.7959621556648617,0.3517510737057191,0.07714002959583469
7.015921568627452e-07,0.7998704210673964,0.35908986222543654,0.0761434443737126
7.037019607843138e-07,0.8031973288335343,0.36297821603339675,0.07555542321640459
7.058117647058823e-07,0.8053655100973505,0.365608808374242,0.07495139145139677
7.079215686274511e-07,0.806536843721659,0.36773580761121105,0.07387714733727008
7.100313725490196e-07,0.8066174575710687,0.36787768524179676,0.07191798720100526
7.121411764705882e-07,0.8064370523449449,0.3665436895682245,0.06913076427079336
7.142509803921569e-07,0.8069414747136456,0.3666187904464334,0.06588255144936611
7.163607843137255e-07,0.8087262471000815,0.36594438234135485,0.06254586784142221
7.184705882352942e-07,0.8113018328899331,0.36445208698678866,0.05945553189272098
7.205803921568627e-07,0.8133440822932316,0.36342836934555905,0.05677419771525882
7.226901960784314e-07,0.8158742439593456,0.3634896579521141,0.05461540244537824
7.248e-07,0.8192564560789444,0.36341609002571373,0.05305966142891244
7.269098039215687e-07,0.8226204748071133,0.3640816474505652,0.05205256757836577
7.290196078431372e-07,0.8247051586714553,0.36526638725181554,0.051505255366806196
7.311294117647059e-07,0.8254130995839085,0.3665432457890362,0.05132885925514338
7.332392156862745e-07,0.8251987669064818,0.36902581584259697,0.05143451370428719
7.353490196078432e-07,0.8228142072022276,0.3714209292797038,0.0517333531751474
7.374588235294119e-07,0.8150261512509446,0.37470038823546836,0.05213651212863379
7.395686274509803e-07,0.8040023934609157,0.3782611396041167,0.0525551250256561
7.416784313725492e-07,0.7925679447567329,0.3807070784099514,0.05290032632712423
7.437882352941177e-07,0.7810413221943943,0.38444681903354544,0.0530851519255259
7.458980392156864e-07,0.7682891502699885,0.38832064710660374,0.05311930955222838
7.48007843137255e-07,0.7543792433655817,0.39208221570095697,0.053153110598922824
7.501176470588236e-07,0.7408853319367584,0.3958240280185261,0.05334794264256104
7.522274509803923e-07,0.729957556402784,0.39967600688654165,0.05386519326009486
7.543372549019609e-07,0.7221380205876211,0.40462955463953687,0.054866250028476095
7.564470588235295e-07,0.7159705749225269,0.4110312546341907,0.056512636279455776
7.585568627450981e-07,0.7106182623148294,0.41627573036247306,0.05900384144546946
7.606666666666668e-07,0.7084858552773996,0.42223485394483057,0.06263025119050761
7.627764705882353e-07,0.7080660463104531,0.4298115002959396,0.06772957293926696
7.64886274509804e-07,0.7086742778806353,0.434757304622343,0.07467878655111392
7.669960784313726e-07,0.7098365673146588,0.43951927553434866,0.08385128880711333
7.691058823529413e-07,0.7085813674008055,0.4455917396877796,0.09559573688652821
7.712156862745099e-07,0.7064048581094049,0.45159512926409795,0.1102541130529808
7.733254901960784e-07,0.7024236929391603,0.45629263487177546,0.12816584620637192
7.754352941176472e-07,0.6966478461487248,0.46002902341762564,0.14938029735168634
7.775450980392157e-07,0.6901686295202552,0.4626067108455365,0.17339335035235112
7.796549019607844e-07,0.6825813756306264,0.46521260563289474,0.19963865531115008
7.81764705882353e-07,0.6726474451878357,0.46719565054512757,0.22754986233085628
7.838745098039216e-07,0.6626708113151636,0.46826365562471917,0.25656062151425296
7.859843137254902e-07,0.6534376195384011,0.4695695424417187,0.2861045829641172
7.880941176470589e-07,0.6446146759922852,0.4709702304536838,0.3156153967832279
7.902039215686275e-07,0.6369405799978477,0.47110850829806733,0.3445267130743636
7.923137254901961e-07,0.6295009791487437,0.4716251014853483,0.37227218194030165
7.944235294117648e-07,0.6222898558081099,0.47311409420000355,0.39828545348382505
7.965333333333333e-07,0.61613850861318,0.47411453577691426,0.4220001778077071
7.98643137254902e-07,0.6111667543250575,0.4741900015179292,0.4428500050147304
8.007529411764706e-07,0.6050662545653317,0.47453837516171044,0.46026858520767233
8.028627450980392e-07,0.5990622749293454,0.4757171779634176,0.4736905091661465
8.049725490196079e-07,0.5940492267151316,0.4757492008544708,0.48440077254471625
8.070823529411765e-07,0.5889278870163989,0.476197686334206,0.4993971529820026
8.091921568627452e-07,0.5829313600887208,0.4774646292832231,0.5198473920466548
8.113019607843137e-07,0.5765701542232599,0.4774132722098418,0.5300290197239212
8.134117647058824e-07,0.57026577138604,0.4772962457684492,0.5301610388679521
8.15521568627451e-07,0.5630084808639133,0.47746182131702947,0.5267500339083777
8.176313725490196e-07,0.5544063342633831,0.4772744189599678,0.5242425642474536
8.197411764705882e-07,0.5456696859443607,0.4759476321357373,0.5211027489238362
8.21850980392157e-07,0.536403501834185,0.4735990323573273,0.5154285615609132
8.239607843137256e-07,0.5248509620131266,0.4702671893354611,0.5074683662731174
8.260705882352941e-07,0.5132868859616959,0.465788748638852,0.4978746142512897
8.281803921568629e-07,0.502785742502391,0.46024363852206257,0.48729975668626835
8.302901960784314e-07,0.49302810288618487,0.4540703005863469,0.4763962447688958
8.324000000000002e-07,0.48366968036196584,0.44767800270023733,0.4658165296900101
8.345098039215687e-07,0.4748670772197221,0.4413523107125723,0.4561674595659146
8.366196078431373e-07,0.4667884719341207,0.4351206127410346,0.44776720748865206
8.38729411764706e-07,0.4594583351263255,0.4296875188889521,0.44082132583497435
8.408392156862746e-07,0.452717123600453,0.4239720200444497,0.4355211520974575
8.429490196078433e-07,0.44593753250106516,0.4176702090731631,0.43181289246182775
8.450588235294118e-07,0.4415088353390828,0.4126538692218995,0.42943358549921
8.471686274509805e-07,0.4396286504562241,0.4073048907406002,0.42811356115012095
8.492784313725491e-07,0.43714940040443245,0.40252409144048157,0.42758314935507785
8.513882352941177e-07,0.4341723673168688,0.39893078755377015,0.427572336448605
8.534980392156863e-07,0.43135694491548765,0.3951420517822438,0.4277923693150322
8.55607843137255e-07,0.4277795376862331,0.39082483109506444,0.4279264793937601
8.577176470588236e-07,0.4239028535595279,0.3870218508550505,0.4276556047592599
8.598274509803921e-07,0.4202351899832276,0.3828472492297323,0.42666068348600256
8.619372549019609e-07,0.4148763760790033,0.3763643144984393,0.4246226536484591
8.640470588235294e-07,0.4073831529608926,0.3698172685037468,0.42126906555905347
8.661568627450982e-07,0.3995397491463297,0.3646544334126611,0.4166700317330764
8.682666666666667e-07,0.3927312339318628,0.3589804559841301,0.4110484495714711
8.703764705882353e-07,0.3843221430173799,0.35259523279092786,0.404627921178264
8.72486274509804e-07,0.3778333233754848,0.3476169397030965,0.39763157400198273
8.745960784313726e-07,0.368359777484163,0.3414700327565944,0.3902211750918499
8.767058823529412e-07,0.3610509158834224,0.33581666173213287,0.38243714762362807
8.788156862745098e-07,0.3538348026949027,0.3305337075166265,0.37430186348083055
8.809254901960785e-07,0.3465356998030063,0.32402712451342325,0.36580745443157847
8.830352941176471e-07,0.33861588979324514,0.3188297404998593,0.35693739534204394
8.851450980392158e-07,0.3316705980706003,0.3131875961377904,0.3477777465517644
8.872549019607843e-07,0.32416907933210587,0.3066510786253791,0.33850236492860397
8.89364705882353e-07,0.3173771550602504,0.30037401946931597,0.3292648935536063
8.914745098039216e-07,0.3108158205833112,0.29404259336585054,0.3201837843591214
8.935843137254902e-07,0.3037128158067991,0.28777993958142334,0.3113745294389452
8.95694117647059e-07,0.2969449408765924,0.2812793855241438,0.3029526208868737
8.978039215686274e-07,0.29207705708450465,0.2752467846889189,0.295033550796703
8.999137254901963e-07,0.2865498192872298,0.27026503465024754,0.28773281126222805
9.020235294117648e-07,0.2790347627933534,0.2639522564195208,0.2811658943772462
9.041333333333334e-07,0.273361621727934,0.2584012386545788,0.2753899032489526
9.062431372549021e-07,0.2685073724747765,0.25354142124017315,0.27018407709563114
9.083529411764707e-07,0.2630481258445172,0.24842667968382115,0.2652450880032368
9.104627450980393e-07,0.2579094718854292,0.24337874662592476,0.2602695945840447
9.125725490196079e-07,0.2532324239275026,0.23832048680178514,0.25499598492643083
9.146823529411766e-07,0.2487652253514441,0.2332725095028631,0.24952916148869478
9.167921568627451e-07,0.24413548041743297,0.22817644745531113,0.24416415639221722
9.189019607843138e-07,0.23907405470751297,0.22321185902960722,0.23918296368591713
9.210117647058824e-07,0.2336314389103076,0.2180477850133038,0.23458573844828043
9.231215686274511e-07,0.22844379659687428,0.21172186998796227,0.2301184100088521
